8175,8173,8171,8171,8170,8170,8170,8171,8172,8172,8172,8173,8173,8172,8170,8169,8168,8169,8169,8169,8170,8171,8172,8172,8172,8171,8171,8171,8172,8173,8173,8173,8173,8172,8173,8174,8176,8180,8186,8196,8209,8227,8251,8279,8313,8354,8399,8446,8492,8538,8579,8613,8639,8655,8653,8627,8574,8502,8422,8342,8271,8215,8173,8147,8131,8122,8117,8113,8111,8111,8113,8118,8123,8128,8131,8134,8134,8136,8138,8140,8143,8145,8147,8150,8151,8152,8153,8155,8153,8152,8153,8154,8154,8154,8154,8155,8157,8159,8159,8159,8159,8160,8161,8161,8160,8161,8163,8165,8167,8166,8164,8164,8165,8166,8167,8167,8168,8169,8171,8172,8173,8175,8178,8180,8180,8178,8176,8176,8178,8180,8183,8185,8187,8187,8187,8190,8194,8197,8197,8195,8196,8197,8200,8203,8204,8204,8206,8209,8211,8211,8214,8215,8216,8219,8224,8228,8230,8232,8235,8237,8238,8241,8244,8246,8247,8248,8250,8253,8255,8255,8256,8256,8257,8257,8253,8249,8247,8244,8242,8241,8241,8241,8241,8240,8237,8232,8228,8226,8222,8219,8216,8212,8207,8204,8202,8198,8194,8190,8187,8184,8180,8177,8176,8176,8175,8173,8170,8167,8164,8165,8166,8167,8165,8160,8156,8156,8155,8153,8152,8152,8151,8149,8150,8151,8151,8151,8151,8153,8156,8159,8160,8159,8156,8154,8155,8155,8156,8157,8158,8160,8162,8161,8159,8159,8163,8167,8166,8162,8160,8162,8163,8163,8162,8161,8161,8161,8162,8163,8163,8164,8166,8167,8165,8163,8163,8163,8163,8162,8161,8163,8167,8168,8167,8165,8162,8162,8163,8164,8166,8166,8165,8165,8163,8164,8166,8167,8168,8168,8167,8164,8163,8164,8165,8166,8168,8169,8169,8167,8167,8166,8167,8167,8165,8163,8163,8164,8165,8166,8167,8167,8165,8163,8163,8162,8163,8166,8169,8167,8165,8166,8167,8167,8168,8169,8169,8166,8165,8167,8168,8169,8169,8170,8170,8169,8167,8166,8168,8170,8169,8166,8166,8165,8164,8166,8170,8171,8170,8171,8171,8169,8168,8168,8168,8167,8167,8168,8169,8171,8174,8174,8174,8173,8172,8171,8170,8172,8174,8177,8182,8186,8185,8181,8178,8179,8182,8186,8185,8183,8186,8188,8189,8190,8194,8195,8194,8190,8188,8187,8185,8185,8184,8182,8179,8176,8175,8176,8177,8178,8178,8179,8180,8180,8177,8173,8172,8173,8174,8174,8173,8173,8174,8174,8173,8173,8173,8174,8175,8175,8176,8177,8177,8177,8178,8179,8180,8180,8180,8182,8184,8184,8184,8190,8201,8217,8233,8254,8284,8322,8364,8405,8446,8489,8532,8570,8601,8625,8636,8627,8592,8532,8458,8379,8303,8240,8195,8162,8144,8137,8134,8130,8123,8118,8116,8118,8122,8126,8132,8137,8139,8141,8143,8145,8147,8148,8150,8152,8153,8154,8153,8152,8151,8153,8155,8156,8158,8160,8161,8163,8161,8159,8159,8159,8162,8164,8164,8164,8165,8166,8166,8165,8161,8160,8161,8165,8168,8169,8169,8169,8169,8169,8168,8169,8171,8174,8175,8175,8173,8175,8177,8178,8178,8178,8178,8179,8180,8182,8183,8186,8187,8187,8188,8190,8193,8195,8196,8198,8201,8203,8205,8206,8208,8210,8213,8212,8213,8215,8220,8224,8227,8228,8228,8229,8231,8234,8237,8239,8240,8241,8242,8243,8245,8245,8246,8246,8246,8245,8244,8243,8242,8241,8240,8239,8238,8236,8234,8231,8229,8226,8225,8223,8221,8218,8214,8210,8207,8203,8200,8196,8193,8188,8183,8178,8174,8171,8169,8168,8167,8166,8165,8162,8160,8159,8158,8158,8156,8156,8156,8155,8155,8153,8152,8152,8151,8150,8149,8149,8150,8150,8150,8150,8150,8149,8148,8147,8147,8147,8148,8149,8150,8152,8153,8154,8154,8154,8153,8153,8154,8155,8156,8156,8156,8156,8156,8155,8155,8155,8156,8157,8156,8155,8154,8153,8152,8151,8151,8151,8152,8154,8155,8157,8159,8159,8160,8160,8160,8159,8158,8156,8154,8155,8157,8159,8159,8158,8157,8156,8153,8153,8154,8155,8155,8155,8155,8155,8157,8157,8158,8158,8158,8158,8158,8157,8157,8156,8155,8155,8154,8154,8153,8153,8154,8154,8156,8157,8158,8158,8158,8158,8158,8157,8157,8155,8154,8153,8153,8153,8154,8154,8156,8158,8159,8160,8162,8162,8161,8162,8162,8162,8161,8161,8161,8159,8157,8155,8154,8152,8152,8152,8154,8155,8157,8159,8160,8161,8162,8164,8165,8167,8167,8165,8162,8161,8160,8161,8162,8164,8165,8166,8167,8168,8167,8166,8167,8170,8172,8172,8173,8174,8173,8173,8172,8173,8174,8175,8175,8175,8173,8172,8170,8168,8166,8164,8162,8160,8159,8160,8162,8163,8164,8163,8163,8162,8162,8161,8159,8158,8156,8157,8158,8158,8159,8159,8158,8156,8155,8155,8156,8158,8160,8162,8163,8164,8164,8164,8165,8167,8167,8167,8166,8168,8172,8178,8187,8202,8222,8250,8290,8342,8398,8453,8506,8557,8605,8650,8687,8707,8705,8676,8619,8537,8439,8343,8262,8200,8154,8124,8106,8094,8085,8080,8079,8081,8085,8090,8095,8100,8106,8111,8116,8122,8128,8132,8137,8141,8145,8146,8146,8145,8142,8142,8144,8147,8150,8153,8155,8156,8156,8158,8160,8160,8159,8159,8161,8162,8164,8164,8164,8164,8165,8167,8168,8169,8169,8171,8174,8177,8180,8182,8182,8180,8179,8179,8180,8182,8184,8186,8188,8189,8190,8193,8195,8197,8198,8199,8201,8202,8202,8203,8204,8205,8207,8209,8211,8212,8215,8219,8222,8225,8227,8230,8233,8235,8237,8238,8240,8241,8244,8248,8251,8254,8255,8258,8260,8262,8264,8266,8267,8268,8268,8268,8268,8268,8269,8269,8268,8267,8266,8263,8260,8258,8255,8252,8249,8246,8242,8237,8234,8230,8226,8222,8218,8215,8212,8208,8203,8200,8196,8192,8188,8184,8180,8176,8173,8170,8166,8164,8162,8161,8159,8158,8156,8155,8154,8154,8154,8155,8155,8155,8155,8155,8155,8155,8155,8156,8157,8159,8160,8161,8163,8164,8165,8167,8168,8170,8170,8170,8170,8170,8171,8172,8173,8174,8174,8174,8173,8173,8173,8174,8174,8175,8175,8174,8173,8173,8172,8172,8172,8172,8172,8171,8171,8170,8170,8169,8169,8168,8168,8167,8167,8166,8166,8165,8165,8165,8165,8165,8165,8165,8165,8165,8164,8163,8163,8164,8164,8163,8163,8163,8163,8163,8163,8163,8163,8163,8162,8162,8162,8162,8162,8163,8164,8165,8166,8169,8176,8188,8207,8234,8270,8312,8360,8411,8461,8511,8560,8607,8647,8674,8685,8674,8636,8571,8490,8402,8318,8245,8189,8151,8127,8113,8106,8102,8100,8100,8100,8100,8103,8106,8111,8115,8119,8121,8122,8123,8124,8126,8127,8129,8130,8132,8133,8135,8135,8136,8137,8138,8139,8139,8140,8141,8142,8143,8144,8145,8146,8146,8147,8148,8149,8149,8150,8151,8153,8154,8155,8156,8156,8157,8157,8157,8158,8160,8162,8162,8162,8163,8164,8165,8166,8167,8168,8170,8171,8172,8173,8174,8175,8176,8178,8181,8183,8184,8185,8187,8188,8192,8195,8197,8199,8201,8203,8205,8207,8210,8212,8214,8217,8221,8224,8226,8227,8230,8232,8235,8238,8240,8241,8242,8242,8241,8239,8239,8239,8239,8238,8235,8233,8231,8230,8228,8225,8223,8221,8218,8216,8213,8210,8208,8205,8201,8197,8193,8188,8184,8179,8175,8172,8171,8169,8167,8163,8161,8159,8158,8156,8154,8153,8152,8151,8151,8151,8151,8150,8148,8146,8146,8147,8146,8145,8144,8145,8146,8146,8146,8147,8147,8148,8149,8152,8152,8150,8149,8148,8148,8147,8148,8149,8150,8150,8151,8152,8152,8152,8152,8153,8153,8153,8155,8157,8157,8157,8157,8157,8157,8157,8157,8157,8157,8157,8157,8156,8155,8156,8156,8157,8157,8157,8157,8158,8159,8159,8160,8161,8160,8160,8161,8160,8159,8158,8158,8159,8159,8160,8160,8159,8159,8160,8161,8162,8164,8164,8163,8160,8159,8160,8162,8163,8164,8163,8163,8163,8163,8161,8162,8163,8166,8168,8167,8165,8164,8163,8161,8161,8161,8162,8163,8163,8163,8163,8163,8163,8163,8163,8163,8164,8165,8167,8168,8167,8165,8163,8163,8164,8164,8165,8166,8166,8167,8167,8167,8168,8169,8170,8171,8170,8169,8168,8169,8171,8173,8173,8173,8173,8173,8170,8169,8170,8171,8172,8173,8173,8173,8174,8175,8174,8172,8171,8171,8173,8173,8172,8171,8170,8171,8173,8174,8175,8173,8172,8173,8173,8173,8174,8175,8174,8172,8172,8173,8175,8176,8176,8176,8176,8175,8174,8175,8176,8175,8175,8175,8176,8177,8177,8177,8178,8180,8178,8176,8175,8176,8178,8180,8181,8182,8182,8182,8180,8179,8178,8179,8180,8179,8178,8180,8183,8186,8185,8182,8182,8183,8184,8185,8187,8188,8189,8188,8189,8193,8196,8198,8200,8201,8201,8201,8200,8200,8200,8200,8197,8191,8187,8186,8185,8185,8186,8187,8186,8185,8182,8180,8180,8181,8182,8183,8184,8184,8185,8187,8186,8183,8183,8182,8182,8183,8183,8182,8182,8183,8185,8186,8185,8186,8186,8185,8182,8180,8179,8181,8182,8186,8193,8201,8213,8229,8255,8289,8325,8361,8403,8446,8488,8527,8564,8600,8630,8650,8655,8638,8592,8523,8444,8363,8292,8237,8196,8167,8149,8137,8131,8127,8124,8122,8124,8126,8129,8134,8138,8142,8148,8152,8150,8147,8147,8150,8154,8158,8159,8159,8158,8159,8161,8160,8158,8158,8160,8161,8161,8161,8164,8168,8169,8165,8164,8165,8165,8163,8164,8166,8167,8165,8166,8169,8173,8177,8178,8176,8174,8171,8170,8170,8171,8172,8174,8176,8178,8179,8179,8179,8180,8183,8183,8182,8182,8182,8184,8185,8186,8186,8188,8194,8198,8200,8200,8200,8200,8200,8202,8204,8207,8209,8212,8214,8214,8213,8215,8218,8222,8226,8227,8228,8231,8234,8237,8239,8239,8237,8240,8244,8245,8243,8243,8245,8249,8249,8247,8245,8243,8240,8239,8238,8238,8240,8240,8238,8234,8231,8230,8228,8226,8224,8221,8219,8216,8212,8210,8208,8207,8206,8203,8200,8201,8202,8198,8188,8184,8182,8181,8180,8178,8176,8173,8171,8170,8172,8175,8174,8171,8168,8165,8163,8162,8164,8167,8168,8167,8167,8167,8166,8165,8163,8163,8164,8166,8166,8164,8164,8163,8162,8162,8163,8165,8166,8168,8169,8167,8168,8169,8169,8167,8164,8164,8165,8167,8168,8170,8173,8176,8174,8169,8168,8168,8166,8165,8166,8168,8169,8171,8171,8170,8168,8166,8165,8166,8168,8169,8166,8166,8168,8172,8176,8178,8178,8174,8167,8163,8164,8166,8168,8168,8165,8164,8166,8167,8166,8163,8163,8166,8169,8170,8169,8168,8168,8168,8169,8168,8167,8168,8169,8169,8168,8167,8170,8172,8171,8170,8169,8167,8167,8168,8169,8166,8162,8162,8164,8165,8164,8166,8169,8169,8166,8166,8167,8169,8171,8173,8173,8170,8168,8169,8171,8169,8167,8167,8166,8165,8167,8170,8171,8172,8172,8171,8168,8168,8169,8169,8168,8168,8169,8169,8170,8171,8171,8172,8173,8174,8173,8172,8172,8170,8168,8168,8170,8171,8172,8172,8172,8172,8173,8175,8175,8177,8178,8179,8179,8178,8178,8179,8180,8181,8182,8182,8184,8186,8186,8186,8187,8188,8188,8190,8192,8192,8192,8190,8189,8189,8188,8187,8184,8182,8181,8179,8178,8178,8178,8177,8176,8176,8175,8175,8175,8175,8175,8176,8177,8177,8177,8177,8177,8178,8178,8177,8176,8174,8173,8172,8171,8172,8172,8173,8174,8175,8176,8176,8175,8175,8174,8173,8174,8176,8180,8187,8200,8217,8240,8268,8302,8342,8385,8428,8471,8514,8555,8593,8625,8645,8649,8629,8580,8508,8426,8343,8270,8213,8172,8145,8129,8120,8114,8111,8109,8108,8109,8110,8113,8117,8121,8125,8129,8132,8134,8136,8137,8137,8138,8140,8141,8142,8143,8144,8144,8143,8143,8143,8145,8146,8147,8148,8150,8151,8152,8154,8155,8157,8159,8160,8161,8162,8162,8162,8161,8160,8160,8159,8158,8158,8159,8160,8161,8163,8165,8166,8167,8169,8169,8168,8168,8168,8170,8171,8174,8177,8180,8183,8185,8187,8188,8188,8188,8188,8187,8187,8188,8192,8196,8199,8202,8206,8208,8208,8209,8211,8214,8217,8220,8223,8226,8229,8233,8236,8241,8245,8247,8249,8252,8254,8255,8255,8255,8256,8259,8259,8258,8257,8256,8254,8253,8251,8251,8251,8250,8249,8247,8244,8242,8239,8236,8233,8230,8226,8222,8217,8212,8207,8202,8197,8193,8189,8185,8182,8179,8177,8176,8176,8174,8169,8166,8163,8160,8157,8155,8154,8154,8153,8150,8147,8146,8144,8141,8139,8139,8140,8141,8141,8140,8140,8140,8140,8139,8138,8138,8137,8137,8136,8136,8136,8138,8141,8142,8144,8144,8144,8146,8147,8148,8148,8148,8147,8146,8145,8144,8142,8142,8142,8143,8143,8142,8142,8144,8145,8147,8147,8148,8151,8152,8151,8150,8149,8149,8148,8148,8148,8147,8147,8147,8147,8148,8151,8153,8154,8155,8153,8151,8149,8149,8150,8150,8151,8152,8151,8150,8150,8151,8151,8151,8151,8151,8151,8151,8151,8150,8150,8150,8151,8151,8152,8152,8152,8150,8149,8149,8150,8151,8151,8151,8150,8149,8149,8150,8152,8155,8157,8157,8155,8154,8152,8151,8151,8151,8152,8153,8154,8154,8154,8154,8153,8152,8152,8152,8153,8154,8155,8155,8155,8156,8158,8160,8159,8160,8161,8162,8162,8161,8159,8157,8157,8159,8161,8164,8166,8168,8170,8170,8169,8169,8168,8169,8170,8172,8173,8174,8175,8176,8176,8177,8177,8177,8177,8176,8174,8172,8170,8168,8167,8167,8166,8165,8166,8166,8165,8163,8162,8161,8160,8160,8160,8161,8161,8161,8161,8161,8162,8163,8164,8165,8165,8165,8165,8165,8165,8165,8166,8166,8167,8167,8167,8167,8168,8169,8170,8172,8174,8178,8184,8193,8205,8226,8257,8298,8348,8401,8455,8506,8555,8600,8642,8676,8692,8687,8656,8597,8516,8420,8326,8250,8195,8156,8131,8115,8105,8099,8095,8096,8098,8101,8104,8107,8111,8115,8121,8127,8134,8140,8144,8147,8149,8152,8154,8156,8158,8160,8162,8164,8165,8166,8167,8169,8171,8172,8174,8175,8175,8176,8177,8177,8178,8179,8180,8181,8181,8182,8183,8184,8186,8188,8190,8192,8192,8193,8193,8194,8194,8195,8197,8198,8199,8199,8199,8200,8201,8202,8203,8205,8206,8208,8209,8210,8211,8212,8213,8215,8217,8218,8219,8220,8221,8223,8225,8227,8230,8233,8234,8236,8238,8240,8242,8244,8246,8248,8251,8253,8255,8258,8261,8264,8265,8267,8268,8269,8270,8271,8271,8272,8272,8272,8272,8271,8269,8267,8265,8264,8263,8262,8260,8256,8253,8250,8247,8244,8241,8238,8235,8231,8226,8221,8217,8213,8210,8206,8202,8198,8193,8188,8184,8180,8177,8175,8173,8172,8171,8168,8166,8164,8162,8161,8160,8160,8158,8157,8156,8156,8155,8155,8155,8155,8156,8156,8156,8157,8157,8156,8155,8154,8155,8155,8155,8155,8155,8156,8157,8158,8159,8158,8157,8157,8157,8157,8158,8159,8160,8161,8161,8162,8163,8164,8164,8164,8164,8165,8165,8165,8165,8165,8166,8167,8167,8168,8168,8168,8167,8166,8165,8165,8165,8166,8166,8165,8164,8163,8164,8165,8166,8165,8165,8164,8163,8163,8163,8163,8163,8162,8163,8162,8162,8161,8161,8161,8162,8163,8163,8163,8161,8160,8160,8160,8161,8162,8162,8163,8162,8162,8161,8161,8160,8161,8161,8161,8162,8162,8163,8163,8162,8162,8162,8162,8162,8161,8161,8162,8162,8162,8163,8164,8164,8164,8163,8163,8164,8165,8166,8166,8165,8165,8165,8165,8164,8165,8165,8165,8166,8166,8167,8167,8168,8168,8170,8171,8173,8174,8173,8172,8172,8172,8174,8178,8180,8180,8177,8174,8173,8174,8175,8177,8178,8180,8181,8182,8182,8183,8184,8185,8186,8186,8186,8184,8180,8177,8176,8176,8176,8174,8174,8175,8175,8173,8171,8171,8171,8170,8170,8171,8171,8171,8170,8169,8169,8169,8169,8170,8171,8171,8171,8171,8171,8170,8171,8173,8175,8175,8175,8174,8173,8173,8172,8173,8175,8178,8184,8195,8208,8227,8253,8288,8328,8372,8418,8461,8502,8542,8580,8613,8639,8653,8646,8611,8551,8475,8399,8326,8260,8207,8169,8145,8130,8123,8120,8118,8115,8113,8114,8117,8121,8126,8132,8137,8139,8140,8141,8144,8145,8145,8145,8146,8148,8149,8149,8150,8150,8151,8153,8154,8154,8154,8155,8156,8156,8156,8157,8160,8162,8164,8164,8163,8164,8165,8166,8164,8163,8165,8167,8168,8167,8168,8167,8168,8168,8169,8170,8172,8174,8175,8174,8174,8175,8178,8180,8181,8180,8181,8184,8187,8187,8185,8186,8190,8194,8194,8194,8194,8196,8197,8198,8199,8202,8204,8207,8209,8212,8216,8220,8222,8225,8226,8226,8228,8230,8231,8232,8234,8237,8240,8243,8244,8246,8247,8250,8252,8254,8254,8252,8251,8251,8251,8251,8251,8250,8249,8248,8246,8243,8238,8236,8233,8230,8230,8231,8228,8223,8218,8213,8210,8207,8203,8201,8197,8194,8189,8186,8182,8178,8174,8173,8172,8170,8169,8168,8167,8165,8162,8161,8161,8161,8160,8158,8158,8157,8157,8158,8159,8159,8158,8158,8159,8159,8157,8156,8158,8161,8162,8160,8161,8161,8160,8159,8159,8159,8161,8163,8163,8161,8160,8159,8160,8161,8161,8161,8162,8162,8161,8161,8163,8164,8164,8164,8163,8162,8161,8163,8166,8165,8162,8163,8166,8166,8165,8163,8162,8161,8161,8164,8166,8166,8165,8164,8164,8166,8167,8166,8166,8168,8169,8171,8173,8171,8167,8166,8164,8163,8163,8163,8163,8163,8165,8167,8169,8170,8172,8170,8168,8168,8169,8169,8168,8167,8167,8167,8165,8164,8165,8165,8166,8169,8169,8168,8167,8166,8163,8163,8166,8168,8169,8168,8168,8169,8170,8170,8168,8167,8167,8168,8168,8169,8169,8168,8167,8167,8168,8170,8170,8170,8171,8171,8172,8174,8172,8171,8170,8170,8171,8171,8171,8171,8171,8171,8171,8170,8171,8174,8176,8178,8180,8179,8178,8177,8177,8179,8183,8183,8182,8183,8185,8188,8190,8192,8193,8192,8192,8193,8193,8193,8193,8195,8196,8194,8187,8182,8180,8180,8181,8182,8183,8183,8181,8177,8175,8174,8175,8177,8179,8178,8176,8174,8174,8174,8175,8174,8172,8171,8173,8176,8178,8177,8176,8176,8175,8176,8177,8180,8181,8179,8177,8177,8178,8181,8182,8180,8180,8182,8187,8194,8204,8220,8243,8273,8310,8349,8392,8437,8478,8517,8556,8589,8617,8634,8632,8605,8553,8484,8406,8331,8268,8218,8179,8153,8136,8127,8124,8124,8124,8121,8117,8116,8120,8127,8132,8135,8137,8139,8144,8148,8149,8150,8152,8152,8148,8149,8151,8152,8153,8155,8158,8159,8159,8159,8161,8162,8161,8161,8163,8163,8162,8164,8166,8167,8166,8164,8163,8165,8168,8168,8168,8168,8169,8172,8174,8175,8176,8176,8177,8179,8180,8179,8179,8180,8181,8183,8184,8184,8184,8185,8187,8189,8188,8186,8188,8193,8195,8195,8194,8194,8196,8199,8203,8207,8209,8208,8209,8210,8212,8216,8221,8223,8222,8222,8224,8227,8230,8232,8234,8237,8239,8242,8244,8245,8247,8248,8249,8251,8251,8251,8250,8250,8250,8249,8247,8246,8245,8244,8243,8241,8239,8237,8235,8233,8231,8228,8226,8223,8219,8216,8212,8209,8206,8203,8200,8198,8194,8188,8184,8181,8178,8176,8173,8170,8168,8166,8164,8162,8161,8160,8160,8161,8161,8160,8159,8158,8158,8157,8157,8156,8155,8153,8153,8151,8151,8151,8151,8151,8151,8151,8151,8151,8152,8152,8153,8154,8154,8154,8155,8155,8156,8157,8158,8158,8159,8158,8156,8156,8156,8157,8158,8159,8160,8159,8158,8157,8156,8156,8157,8157,8157,8157,8156,8155,8156,8157,8158,8159,8160,8161,8161,8162,8162,8162,8162,8162,8161,8161,8160,8158,8157,8156,8155,8155,8155,8155,8155,8155,8156,8156,8156,8157,8158,8159,8159,8159,8160,8160,8160,8160,8160,8161,8160,8159,8157,8156,8155,8155,8155,8156,8156,8157,8158,8158,8158,8158,8158,8158,8158,8157,8157,8157,8156,8155,8155,8156,8156,8156,8156,8155,8155,8155,8155,8156,8157,8159,8160,8160,8160,8160